Stimulus(s),S21(Real)
2.60000000000E-07,-2.36054335127E-09
2.60008000800E-07,-4.28110984064E-09
2.60016001600E-07,-5.99578953281E-09
2.60024002400E-07,-7.42286753036E-09
2.60032003200E-07,-8.49511259816E-09
2.60040004000E-07,-9.16292992410E-09
2.60048004800E-07,-9.39660286102E-09
2.60056005601E-07,-9.18752555389E-09
2.60064006401E-07,-8.54838120703E-09
2.60072007201E-07,-7.51227483066E-09
2.60080008001E-07,-6.13088177868E-09
2.60088008801E-07,-4.47172155952E-09
2.60096009601E-07,-2.61470787192E-09
2.60104010401E-07,-6.48158609483E-10
2.60112011201E-07,+1.33552777284E-09
2.60120012001E-07,+3.24431152278E-09
2.60128012801E-07,+4.99084817771E-09
2.60136013601E-07,+6.49651486317E-09
2.60144014401E-07,+7.69493949268E-09
2.60152015202E-07,+8.53487557790E-09
2.60160016002E-07,+8.98230179697E-09
2.60168016802E-07,+9.02166673132E-09
2.60176017602E-07,+8.65624299722E-09
2.60184018402E-07,+7.90759905228E-09
2.60192019202E-07,+6.81423901092E-09
2.60200020002E-07,+5.42949881891E-09
2.60208020802E-07,+3.81881936852E-09
2.60216021602E-07,+2.05654222272E-09
2.60224022402E-07,+2.22390619308E-10
2.60232023202E-07,-1.60219312048E-09
2.60240024002E-07,-3.33768276006E-09
2.60248024802E-07,-4.90991310399E-09
2.60256025603E-07,-6.25318748222E-09
2.60264026403E-07,-7.31292217421E-09
2.60272027203E-07,-8.04772860240E-09
2.60280028003E-07,-8.43086373284E-09
2.60288028803E-07,-8.45101030288E-09
2.60296029603E-07,-8.11237966347E-09
2.60304030403E-07,-7.43415970367E-09
2.60312031203E-07,-6.44935722066E-09
2.60320032003E-07,-5.20310716428E-09
2.60328032803E-07,-3.75053963677E-09
2.60336033603E-07,-2.15430889195E-09
2.60344034403E-07,-4.81896661845E-10
2.60352035204E-07,+1.19719496294E-09
2.60360036004E-07,+2.81424782864E-09
2.60368036804E-07,+4.30402219358E-09
2.60376037604E-07,+5.60724430040E-09
2.60384038404E-07,+6.67280274421E-09
2.60392039204E-07,+7.45958417816E-09
2.60400040004E-07,+7.93789501272E-09
2.60408040804E-07,+8.09043242069E-09
2.60416041604E-07,+7.91278452273E-09
2.60424042404E-07,+7.41345557398E-09
2.60432043204E-07,+6.61342690969E-09
2.60440044004E-07,+5.54527806081E-09
2.60448044804E-07,+4.25190466120E-09
2.60456045605E-07,+2.78488046069E-09
2.60464046405E-07,+1.20251992590E-09
2.60472047205E-07,-4.32294426011E-10
2.60480048005E-07,-2.05444962577E-09
2.60488048805E-07,-3.59902972853E-09
2.60496049605E-07,-5.00375489352E-09
2.60504050405E-07,-6.21135215675E-09
2.60512051205E-07,-7.17177806651E-09
2.60520052005E-07,-7.84421532353E-09
2.60528052805E-07,-8.19876962930E-09
2.60536053605E-07,-8.21779929203E-09
2.60544054405E-07,-7.89681893020E-09
2.60552055206E-07,-7.24492993576E-09
2.60560056006E-07,-6.28474420114E-09
2.60568056806E-07,-5.05178382067E-09
2.60576057606E-07,-3.59335774385E-09
2.60584058406E-07,-1.96693620217E-09
2.60592059206E-07,-2.38064501992E-10
2.60600060006E-07,+1.52212133613E-09
2.60608060806E-07,+3.23969454640E-09
2.60616061606E-07,+4.84095243808E-09
2.60624062406E-07,+6.25553001393E-09
2.60632063206E-07,+7.41948499186E-09
2.60640064006E-07,+8.27822038879E-09
2.60648064806E-07,+8.78911005113E-09
2.60656065607E-07,+8.92369796443E-09
2.60664066407E-07,+8.66935410203E-09
2.60672067207E-07,+8.03028791364E-09
2.60680068007E-07,+7.02784487885E-09
2.60688068807E-07,+5.70004106957E-09
2.60696069607E-07,+4.10032423851E-09
2.60704070407E-07,+2.29558612915E-09
2.60712071207E-07,+3.63487786100E-10
2.60720072007E-07,-1.61080423331E-09
2.60728072807E-07,-3.53833963359E-09
2.60736073607E-07,-5.33040463365E-09
2.60744074407E-07,-6.90265938313E-09
2.60752075208E-07,-8.17919752272E-09
2.60760076008E-07,-9.09632842581E-09
2.60768076808E-07,-9.60588819541E-09
2.60776077608E-07,-9.67790121689E-09
2.60784078408E-07,-9.30243964999E-09
2.60792079208E-07,-8.49056278860E-09
2.60800080008E-07,-7.27426030128E-09
2.60808080808E-07,-5.70537108104E-09
2.60816081608E-07,-3.85350048343E-09
2.60824082408E-07,-1.80301052857E-09
2.60832083208E-07,+3.50792544519E-10
2.60840084008E-07,+2.50610389845E-09
2.60848084808E-07,+4.55949165059E-09
2.60856085609E-07,+6.41095895538E-09
2.60864086409E-07,+7.96894450727E-09
2.60872087209E-07,+9.15500539968E-09
2.60880088009E-07,+9.90793570188E-09
2.60888088809E-07,+1.01870968545E-08
2.60896089609E-07,+9.97477122378E-09
2.60904090409E-07,+9.27739637997E-09
2.60912091209E-07,+8.12559270406E-09
2.60920092009E-07,+6.57295806070E-09
2.60928092809E-07,+4.69366737032E-09
2.60936093609E-07,+2.57897858016E-09
2.60944094409E-07,+3.32806314844E-10
2.60952095210E-07,-1.93342295810E-09
2.60960096010E-07,-4.10637811299E-09
2.60968096810E-07,-6.07660726803E-09
2.60976097610E-07,-7.74419797465E-09
2.60984098410E-07,-9.02401431059E-09
2.60992099210E-07,-9.85022867264E-09
2.61000100010E-07,-1.01798987916E-08
2.61008100810E-07,-9.99538729973E-09
2.61016101610E-07,-9.30547980607E-09
2.61024102410E-07,-8.14512489854E-09
2.61032103210E-07,-6.57379228173E-09
2.61040104010E-07,-4.67251947957E-09
2.61048104810E-07,-2.53978914774E-09
2.61056105611E-07,-2.86444072800E-10
2.61064106411E-07,+1.97009830192E-09
2.61072107211E-07,+4.11202866946E-09
2.61080108011E-07,+6.02739745068E-09
2.61088108811E-07,+7.61609888862E-09
2.61096109611E-07,+8.79526187889E-09
2.61104110411E-07,+9.50375028898E-09
2.61112111211E-07,+9.70552072877E-09
2.61120112011E-07,+9.39164537076E-09
2.61128112811E-07,+8.58087838857E-09
2.61136113611E-07,+7.31872310815E-09
2.61144114411E-07,+5.67503880003E-09
2.61152115212E-07,+3.74030668171E-09
2.61160116012E-07,+1.62074965391E-09
2.61168116812E-07,-5.67434676610E-10
2.61176117612E-07,-2.70441677479E-09
2.61184118412E-07,-4.67330817762E-09
2.61192119212E-07,-6.36660330223E-09
2.61200120012E-07,-7.69213274349E-09
2.61208120812E-07,-8.57819477351E-09
2.61216121612E-07,-8.97757460602E-09
2.61224122412E-07,-8.87022047011E-09
2.61232123212E-07,-8.26441850585E-09
2.61240124012E-07,-7.19639100631E-09
2.61248124812E-07,-5.72833006108E-09
2.61256125613E-07,-3.94496634787E-09
2.61264126413E-07,-1.94885574596E-09
2.61272127213E-07,+1.45360103559E-10
2.61280128013E-07,+2.21740341623E-09
2.61288128813E-07,+4.14816165090E-09
2.61296129613E-07,+5.82645949384E-09
2.61304130413E-07,+7.15541877721E-09
2.61312131213E-07,+8.05804373739E-09
2.61320132013E-07,+8.48170973603E-09
2.61328132813E-07,+8.40129283968E-09
2.61336133613E-07,+7.82075232091E-09
2.61344134413E-07,+6.77306413834E-09
2.61352135214E-07,+5.31849602585E-09
2.61360136014E-07,+3.54130880315E-09
2.61368136814E-07,+1.54505860571E-09
2.61376137614E-07,-5.53244215561E-10
2.61384138414E-07,-2.62979643470E-09
2.61392139214E-07,-4.56111076650E-09
2.61400140014E-07,-6.23117037371E-09
2.61408140814E-07,-7.53822077199E-09
2.61416141614E-07,-8.40080743434E-09
2.61424142414E-07,-8.76270639335E-09
2.61432143214E-07,-8.59645455498E-09
2.61440144014E-07,-7.90526311517E-09
2.61448144814E-07,-6.72318724208E-09
2.61456145615E-07,-5.11352310218E-09
2.61464146415E-07,-3.16550390378E-09
2.61472147215E-07,-9.89464236731E-10
2.61480148015E-07,+1.28926895570E-09
2.61488148815E-07,+3.53742506368E-09
2.61496149615E-07,+5.62138716378E-09
2.61504150415E-07,+7.41491129197E-09
2.61512151215E-07,+8.80652891280E-09
2.61520152015E-07,+9.70620659620E-09
2.61528152815E-07,+1.00508739025E-08
2.61536153615E-07,+9.80848989698E-09
2.61544154415E-07,+8.98039745052E-09
2.61552155216E-07,+7.60180830258E-09
2.61560156016E-07,+5.74036564103E-09
2.61568156816E-07,+3.49283894737E-09
2.61576157616E-07,+9.80112034217E-10
2.61584158416E-07,-1.65927643358E-09
2.61592159216E-07,-4.27669570558E-09
2.61600160016E-07,-6.72167818299E-09
2.61608160816E-07,-8.85041200606E-09
2.61616161616E-07,-1.05339965816E-08
2.61624162416E-07,-1.16659937188E-08
2.61632163216E-07,-1.21688403753E-08
2.61640164016E-07,-1.19987470275E-08
2.61648164816E-07,-1.11487853890E-08
2.61656165617E-07,-9.64996639659E-09
2.61664166417E-07,-7.57021882585E-09
2.61672167217E-07,-5.01129462023E-09
2.61680168017E-07,-2.10374264937E-09
2.61688168817E-07,+9.99798285919E-10
2.61696169617E-07,+4.13263993338E-09
2.61704170417E-07,+7.12299296915E-09
2.61712171217E-07,+9.80334204062E-09
2.61720172017E-07,+1.20197365550E-08
2.61728172817E-07,+1.36404844917E-08
2.61736173617E-07,+1.45637629644E-08
2.61744174417E-07,+1.47237127783E-08
2.61752175218E-07,+1.40946621300E-08
2.61760176018E-07,+1.26932228333E-08
2.61768176818E-07,+1.05781158065E-08
2.61776177618E-07,+7.84770495340E-09
2.61784178418E-07,+4.63534336843E-09
2.61792179218E-07,+1.10275619399E-09
2.61800180018E-07,-2.56820618118E-09
2.61808180818E-07,-6.18501863358E-09
2.61816181618E-07,-9.55463960350E-09
2.61824182418E-07,-1.24938375673E-08
2.61832183218E-07,-1.48391312561E-08
2.61840184018E-07,-1.64558042911E-08
2.61848184818E-07,-1.72454993276E-08
2.61856185619E-07,-1.71519683530E-08
2.61864186419E-07,-1.61646508016E-08
2.61872187219E-07,-1.43198646428E-08
2.61880188019E-07,-1.16995215766E-08
2.61888188819E-07,-8.42740920876E-09
2.61896189619E-07,-4.66321350928E-09
2.61904190419E-07,-5.94576963460E-10
2.61912191219E-07,+3.57240502970E-09
2.61920192019E-07,+7.62376059519E-09
2.61928192819E-07,+1.13487409230E-08
2.61936193619E-07,+1.45508612945E-08
2.61944194419E-07,+1.70583008767E-08
2.61952195220E-07,+1.87331084631E-08
2.61960196020E-07,+1.94787207652E-08
2.61968196820E-07,+1.92453857877E-08
2.61976197620E-07,+1.80331917635E-08
2.61984198420E-07,+1.58925264383E-08
2.61992199220E-07,+1.29219256239E-08
2.62000200020E-07,+9.26340679482E-09
2.62008200820E-07,+5.09551585018E-09
2.62016201620E-07,+6.24435968985E-10
2.62024202420E-07,-3.92638964699E-09
2.62032203220E-07,-8.32758990543E-09
2.62040204020E-07,-1.23555697975E-08
2.62048204820E-07,-1.58039818040E-08
2.62056205621E-07,-1.84943705276E-08
2.62064206421E-07,-2.02854376243E-08
2.62072207221E-07,-2.10804443068E-08
2.62080208021E-07,-2.08323641457E-08
2.62088208821E-07,-1.95465146024E-08
2.62096209621E-07,-1.72805256254E-08
2.62104210421E-07,-1.41416409397E-08
2.62112211221E-07,-1.02814851832E-08
2.62120212021E-07,-5.88856062510E-09
2.62128212821E-07,-1.17885405096E-09
2.62136213621E-07,+3.61496852751E-09
2.62144214421E-07,+8.25522939059E-09
2.62152215222E-07,+1.25111750828E-08
2.62160216022E-07,+1.61705738977E-08
2.62168216822E-07,+1.90503860083E-08
2.62176217622E-07,+2.10059656491E-08
2.62184218422E-07,+2.19383306221E-08
2.62192219222E-07,+2.17991338343E-08
2.62200220022E-07,+2.05930893473E-08
2.62208220822E-07,+1.83777353971E-08
2.62216221622E-07,+1.52605522687E-08
2.62224222422E-07,+1.13935868264E-08
2.62232223222E-07,+6.96586104016E-09
2.62240224022E-07,+2.19395263998E-09
2.62248224822E-07,-2.68877348026E-09
2.62256225623E-07,-7.44373880447E-09
2.62264226423E-07,-1.18389476485E-08
2.62272227223E-07,-1.56604164476E-08
2.62280228023E-07,-1.87226676066E-08
2.62288228823E-07,-2.08777699569E-08
2.62296229623E-07,-2.20224838928E-08
2.62304230423E-07,-2.21031669274E-08
2.62312231223E-07,-2.11182095804E-08
2.62320232023E-07,-1.91178962635E-08
2.62328232823E-07,-1.62017147764E-08
2.62336233623E-07,-1.25132646270E-08
2.62344234423E-07,-8.23303231118E-09
2.62352235224E-07,-3.56940510513E-09
2.62360236024E-07,+1.25162119210E-09
2.62368236824E-07,+5.99752473344E-09
2.62376237624E-07,+1.04405803338E-08
2.62384238424E-07,+1.43688659015E-08
2.62392239224E-07,+1.75964171511E-08
2.62400240024E-07,+1.99720424292E-08
2.62408240824E-07,+2.13863802732E-08
2.62416241624E-07,+2.17768727943E-08
2.62424242424E-07,+2.11304333948E-08
2.62432243224E-07,+1.94837022776E-08
2.62440244024E-07,+1.69209018802E-08
2.62448244824E-07,+1.35694208815E-08
2.62456245625E-07,+9.59336409538E-09
2.62464246425E-07,+5.18540118367E-09
2.62472247225E-07,+5.57325215609E-10
2.62480248025E-07,-4.07021085069E-09
2.62488248825E-07,-8.47827813042E-09
2.62496249625E-07,-1.24600657515E-08
2.62504250425E-07,-1.58305902137E-08
2.62512251225E-07,-1.84352650711E-08
2.62520252025E-07,-2.01569365356E-08
2.62528252825E-07,-2.09210692424E-08
2.62536253625E-07,-2.06988589006E-08
2.62544254425E-07,-1.95081502061E-08
2.62552255226E-07,-1.74121441840E-08
2.62560256026E-07,-1.45159839409E-08
2.62568256826E-07,-1.09614066795E-08
2.62576257626E-07,-6.91973817603E-09
2.62584258426E-07,-2.58357978106E-09
2.62592259226E-07,+1.84240584268E-09
2.62600260026E-07,+6.15116787001E-09
2.62608260826E-07,+1.01429421202E-08
2.62616261626E-07,+1.36344770140E-08
2.62624262426E-07,+1.64673877401E-08
2.62632263226E-07,+1.85152624094E-08
2.62640264026E-07,+1.96892072976E-08
2.62648264826E-07,+1.99415949627E-08
2.62656265627E-07,+1.92678652669E-08
2.62664266427E-07,+1.77063209989E-08
2.62672267227E-07,+1.53359525760E-08
2.62680268027E-07,+1.22724159679E-08
2.62688268827E-07,+8.66237049990E-09
2.62696269627E-07,+4.67645498149E-09
2.62704270427E-07,+5.01238625360E-10
2.62712271227E-07,-3.66947487582E-09
2.62720272027E-07,-7.64358753008E-09
2.62728272827E-07,-1.12394831325E-08
2.62736273627E-07,-1.42942435064E-08
2.62744274427E-07,-1.66709392369E-08
2.62752275228E-07,-1.82646751753E-08
2.62760276028E-07,-1.90071305045E-08
2.62768276828E-07,-1.88694033877E-08
2.62776277628E-07,-1.78630479541E-08
2.62784278428E-07,-1.60392730748E-08
2.62792279228E-07,-1.34863544602E-08
2.62800280028E-07,-1.03253904792E-08
2.62808280828E-07,-6.70460440881E-09
2.62816281628E-07,-2.79245850976E-09
2.62824282428E-07,+1.23010417663E-09
2.62832283228E-07,+5.17793816121E-09
2.62840284028E-07,+8.87012120929E-09
2.62848284828E-07,+1.21381504329E-08
2.62856285629E-07,+1.48335440070E-08
2.62864286429E-07,+1.68345117512E-08
2.62872287229E-07,+1.80514003191E-08
2.62880288029E-07,+1.84306738481E-08
2.62888288829E-07,+1.79572562298E-08
2.62896289629E-07,+1.66551338513E-08
2.62904290429E-07,+1.45861946102E-08
2.62912291229E-07,+1.18473569321E-08
2.62920292029E-07,+8.56611808868E-09
2.62928292829E-07,+4.89472109433E-09
2.62936293629E-07,+1.00320084339E-09
2.62944294429E-07,-2.92837972258E-09
2.62952295230E-07,-6.71815594716E-09
2.62960296030E-07,-1.01907812410E-08
2.62968296830E-07,-1.31854657931E-08
2.62976297630E-07,-1.55633706816E-08
2.62984298430E-07,-1.72140209519E-08
2.62992299230E-07,-1.80604433866E-08
2.63000300030E-07,-1.80627902136E-08
2.63008300830E-07,-1.72202765797E-08
2.63016301630E-07,-1.55713344555E-08
2.63024302430E-07,-1.31919655211E-08
2.63032303230E-07,-1.01923570350E-08
2.63040304030E-07,-6.71190411667E-09
2.63048304830E-07,-2.91285568496E-09
2.63056305631E-07,+1.02713387174E-09
2.63064306431E-07,+4.92321243361E-09
2.63072307231E-07,+8.59192425153E-09
2.63080308031E-07,+1.18597957513E-08
2.63088308831E-07,+1.45715145712E-08
2.63096309631E-07,+1.65973178360E-08
2.63104310431E-07,+1.78392380597E-08
2.63112311231E-07,+1.82359041851E-08
2.63120312031E-07,+1.77656591347E-08
2.63128312831E-07,+1.64478311472E-08
2.63136313631E-07,+1.43420807908E-08
2.63144314431E-07,+1.15458350734E-08
2.63152315232E-07,+8.18991039593E-09
2.63160316032E-07,+4.43251298353E-09
2.63168316832E-07,+4.51884705519E-10
2.63176317632E-07,-3.56207003309E-09
2.63184318432E-07,-7.41678781318E-09
2.63192319232E-07,-1.09262565217E-08
2.63200320032E-07,-1.39199934904E-08
2.63208320832E-07,-1.62513579363E-08
2.63216321632E-07,-1.78047905943E-08
2.63224322432E-07,-1.85016198797E-08
2.63232323232E-07,-1.83041385174E-08
2.63240324032E-07,-1.72177345092E-08
2.63248324832E-07,-1.52909519537E-08
2.63256325633E-07,-1.26134563210E-08
2.63264326433E-07,-9.31198059023E-09
2.63272327233E-07,-5.54442823177E-09
2.63280328033E-07,-1.49240142824E-09
2.63288328833E-07,+2.64749650901E-09
2.63296329633E-07,+6.67317102365E-09
2.63304330433E-07,+1.03868999334E-08
2.63312331233E-07,+1.36050691890E-08
2.63320332033E-07,+1.61672996837E-08
2.63328332833E-07,+1.79445084064E-08
2.63336333633E-07,+1.88454946532E-08
2.63344334433E-07,+1.88217104522E-08
2.63352335234E-07,+1.78699607008E-08
2.63360336034E-07,+1.60328787108E-08
2.63368336834E-07,+1.33971320546E-08
2.63376337634E-07,+1.00894264538E-08
2.63384338434E-07,+6.27048629915E-09
2.63392339234E-07,+2.12729362652E-09
2.63400340034E-07,-2.13604234218E-09
2.63408340834E-07,-6.30834038108E-09
2.63416341634E-07,-1.01818314585E-08
2.63424342434E-07,-1.35625497134E-08
2.63432343234E-07,-1.62801075744E-08
2.63440344034E-07,-1.81963584525E-08
2.63448344834E-07,-1.92125019713E-08
2.63456345635E-07,-1.92742613659E-08
2.63464346435E-07,-1.83748569333E-08
2.63472347235E-07,-1.65556086661E-08
2.63480348035E-07,-1.39041200112E-08
2.63488348835E-07,-1.05501170887E-08
2.63496349635E-07,-6.65913744478E-09
2.63504350435E-07,-2.42437331609E-09
2.63512351235E-07,+1.94292931874E-09
2.63520352035E-07,+6.22403804399E-09
2.63528352835E-07,+1.02037370565E-08
2.63536353635E-07,+1.36812093667E-08
2.63544354435E-07,+1.64802439172E-08
2.63552355236E-07,+1.84582442163E-08
2.63560356036E-07,+1.95135730218E-08
2.63568356836E-07,+1.95908498928E-08
2.63576357636E-07,+1.86839209796E-08
2.63584358436E-07,+1.68363380997E-08
2.63592359236E-07,+1.41393109658E-08
2.63600360036E-07,+1.07272258872E-08
2.63608360836E-07,+6.77094966598E-09
2.63616361636E-07,+2.46925223192E-09
2.63624362436E-07,-1.96122023046E-09
2.63632363236E-07,-6.29691349095E-09
2.63640364036E-07,-1.03187161299E-08
2.63648364836E-07,-1.38231124871E-08
2.63656365637E-07,-1.66325652252E-08
2.63664366437E-07,-1.86045927688E-08
2.63672367237E-07,-1.96390724594E-08
2.63680368037E-07,-1.96833903792E-08
2.63688368837E-07,-1.87351688674E-08
2.63696369637E-07,-1.68424270988E-08
2.63704370437E-07,-1.41011623067E-08
2.63712371237E-07,-1.06504724212E-08
2.63720372037E-07,-6.66546813194E-09
2.63728372837E-07,-2.34833700251E-09
2.63736373637E-07,+2.08198174236E-09
2.63744374437E-07,+6.40098082668E-09
2.63752375238E-07,+1.03900511927E-08
2.63760376038E-07,+1.38476402741E-08
2.63768376838E-07,+1.65995274113E-08
2.63776377638E-07,+1.85076872532E-08
2.63784378438E-07,+1.94772852550E-08
2.63792379238E-07,+1.94614463715E-08
2.63800380038E-07,+1.84635537056E-08
2.63808380838E-07,+1.65369621408E-08
2.63816381638E-07,+1.37821461462E-08
2.63824382438E-07,+1.03414339626E-08
2.63832383238E-07,+6.39160529916E-09
2.63840384038E-07,+2.13473993915E-09
2.63848384838E-07,-2.21220546897E-09
2.63856385639E-07,-6.42855036980E-09
2.63864386439E-07,-1.03011945791E-08
2.63872387239E-07,-1.36354893664E-08
2.63880388039E-07,-1.62651152630E-08
2.63888388839E-07,-1.80604601091E-08
2.63896389639E-07,-1.89350707064E-08
2.63904390439E-07,-1.88498532777E-08
2.63912391239E-07,-1.78148163292E-08
2.63920392039E-07,-1.58882781852E-08
2.63928392839E-07,-1.31735936251E-08
2.63936393639E-07,-9.81358272715E-09
2.63944394439E-07,-5.98296349336E-09
2.63952395240E-07,-1.87919189202E-09
2.63960396040E-07,+2.28780664467E-09
2.63968396840E-07,+6.30647561583E-09
2.63976397640E-07,+9.97447097361E-09
2.63984398440E-07,+1.31089485974E-08
2.63992399240E-07,+1.55557674662E-08
2.64000400040E-07,+1.71971406015E-08
2.64008400840E-07,+1.79573502237E-08
2.64016401640E-07,+1.78062473673E-08
2.64024402440E-07,+1.67603738342E-08
2.64032403240E-07,+1.48816695267E-08
2.64040404040E-07,+1.22738542453E-08
2.64048404840E-07,+9.07669332783E-09
2.64056405641E-07,+5.45846474299E-09
2.64064406441E-07,+1.60703586388E-09
2.64072407241E-07,-2.27997349818E-09
2.64080408041E-07,-6.00542249511E-09
2.64088408841E-07,-9.38274069501E-09
2.64096409641E-07,-1.22453582786E-08
2.64104410441E-07,-1.44549939263E-08
2.64112411241E-07,-1.59083843710E-08
2.64120412041E-07,-1.65421256837E-08
2.64128412841E-07,-1.63353987627E-08
2.64136413641E-07,-1.53104645976E-08
2.64144414441E-07,-1.35309326133E-08
2.64152415242E-07,-1.10979214831E-08
2.64160416042E-07,-8.14434013923E-09
2.64168416842E-07,-4.82761168295E-09
2.64176417642E-07,-1.32123966832E-09
2.64184418442E-07,+2.19432900704E-09
2.64192419242E-07,+5.54106021797E-09
