Stimulus(s),S21(dB)
0.00000000000E+00,-1.31356019409E+02
1.00010001000E-10,-1.29108907138E+02
2.00020002000E-10,-1.27291502912E+02
3.00030003000E-10,-1.26355040447E+02
4.00040004000E-10,-1.26441594773E+02
5.00050005001E-10,-1.27763190139E+02
6.00060006001E-10,-1.30687163356E+02
7.00070007001E-10,-1.33960689500E+02
8.00080008001E-10,-1.31009864178E+02
9.00090009001E-10,-1.27121492659E+02
1.00010001000E-09,-1.24834200033E+02
1.10011001100E-09,-1.22682103999E+02
1.20012001200E-09,-1.18438565557E+02
1.30013001300E-09,-1.13003503694E+02
1.40014001400E-09,-1.07962211698E+02
1.50015001500E-09,-1.03602589530E+02
1.60016001600E-09,-9.98364477981E+01
1.70017001700E-09,-9.65496192381E+01
1.80018001800E-09,-9.36528786029E+01
1.90019001900E-09,-9.10808827384E+01
2.00020002000E-09,-8.87856352760E+01
2.10021002100E-09,-8.67312422901E+01
2.20022002200E-09,-8.48903217667E+01
2.30023002300E-09,-8.32416061249E+01
2.40024002400E-09,-8.17683281629E+01
2.50025002500E-09,-8.04571151117E+01
2.60026002600E-09,-7.92972161789E+01
2.70027002700E-09,-7.82799534914E+01
2.80028002800E-09,-7.73983262871E+01
2.90029002900E-09,-7.66467229772E+01
3.00030003000E-09,-7.60207113028E+01
3.10031003100E-09,-7.55168868833E+01
3.20032003200E-09,-7.51327671570E+01
3.30033003300E-09,-7.48667223793E+01
3.40034003400E-09,-7.47179387984E+01
3.50035003500E-09,-7.46864119379E+01
3.60036003600E-09,-7.47729705166E+01
3.70037003700E-09,-7.49793343226E+01
3.80038003800E-09,-7.53082128026E+01
3.90039003900E-09,-7.57634558836E+01
4.00040004000E-09,-7.63502756646E+01
4.10041004100E-09,-7.70755689335E+01
4.20042004200E-09,-7.79483893483E+01
4.30043004300E-09,-7.89806511095E+01
4.40044004400E-09,-8.01882064210E+01
4.50045004500E-09,-8.15925560148E+01
4.60046004600E-09,-8.32236930438E+01
4.70047004700E-09,-8.51251166430E+01
4.80048004800E-09,-8.73633618501E+01
4.90049004900E-09,-9.00480116911E+01
5.00050005001E-09,-9.33799335938E+01
5.10051005101E-09,-9.77939203188E+01
5.20052005201E-09,-1.04546321077E+02
5.30053005301E-09,-1.16464513905E+02
5.40054005401E-09,-1.07300942115E+02
5.50055005501E-09,-1.02965634509E+02
5.60056005601E-09,-1.01069055921E+02
5.70057005701E-09,-1.00321625574E+02
5.80058005801E-09,-1.00295111077E+02
5.90059005901E-09,-1.00805789972E+02
6.00060006001E-09,-1.01767669851E+02
6.10061006101E-09,-1.03144562825E+02
6.20062006201E-09,-1.04931959586E+02
6.30063006301E-09,-1.07150010352E+02
6.40064006401E-09,-1.09838384824E+02
6.50065006501E-09,-1.13032080185E+02
6.60066006601E-09,-1.16618029819E+02
6.70067006701E-09,-1.19735956002E+02
6.80068006801E-09,-1.20534053676E+02
6.90069006901E-09,-1.19340232268E+02
7.00070007001E-09,-1.17811570579E+02
7.10071007101E-09,-1.16460766099E+02
7.20072007201E-09,-1.15322057626E+02
7.30073007301E-09,-1.14383942912E+02
7.40074007401E-09,-1.13652659397E+02
7.50075007501E-09,-1.13141919595E+02
7.60076007601E-09,-1.12862010050E+02
7.70077007701E-09,-1.12816160941E+02
7.80078007801E-09,-1.13000096923E+02
7.90079007901E-09,-1.13400998278E+02
8.00080008001E-09,-1.13993519620E+02
8.10081008101E-09,-1.14731228566E+02
8.20082008201E-09,-1.15533592857E+02
8.30083008301E-09,-1.16275897311E+02
8.40084008401E-09,-1.16804472263E+02
8.50085008501E-09,-1.16999461048E+02
8.60086008601E-09,-1.16848722591E+02
8.70087008701E-09,-1.16446755907E+02
8.80088008801E-09,-1.15920421025E+02
8.90089008901E-09,-1.15368067997E+02
9.00090009001E-09,-1.14846534934E+02
9.10091009101E-09,-1.14383126325E+02
9.20092009201E-09,-1.13990387993E+02
9.30093009301E-09,-1.13676375336E+02
9.40094009401E-09,-1.13450232830E+02
9.50095009501E-09,-1.13324537027E+02
9.60096009601E-09,-1.13315843593E+02
9.70097009701E-09,-1.13444572048E+02
9.80098009801E-09,-1.13735034232E+02
9.90099009901E-09,-1.14216142429E+02
1.00010001000E-08,-1.14923184937E+02
1.01010101010E-08,-1.15901035011E+02
1.02010201020E-08,-1.17209037156E+02
1.03010301030E-08,-1.18926218167E+02
1.04010401040E-08,-1.21144227527E+02
1.05010501050E-08,-1.23865585201E+02
1.06010601060E-08,-1.26418959712E+02
1.07010701070E-08,-1.26707705429E+02
1.08010801080E-08,-1.24774014470E+02
1.09010901090E-08,-1.22715992213E+02
1.10011001100E-08,-1.21194602101E+02
1.11011101110E-08,-1.20217123117E+02
1.12011201120E-08,-1.19708001292E+02
1.13011301130E-08,-1.19607674636E+02
1.14011401140E-08,-1.19879997140E+02
1.15011501150E-08,-1.20508028399E+02
1.16011601160E-08,-1.21490262988E+02
1.17011701170E-08,-1.22838295915E+02
1.18011801180E-08,-1.24574724727E+02
1.19011901190E-08,-1.26727822032E+02
1.20012001200E-08,-1.29312486466E+02
1.21012101210E-08,-1.32267179542E+02
1.22012201220E-08,-1.35296590018E+02
1.23012301230E-08,-1.37769917949E+02
1.24012401240E-08,-1.39351908385E+02
1.25012501250E-08,-1.40642167793E+02
1.26012601260E-08,-1.42278686913E+02
1.27012701270E-08,-1.43728957085E+02
1.28012801280E-08,-1.42807417454E+02
1.29012901290E-08,-1.39992245365E+02
1.30013001300E-08,-1.37356609636E+02
1.31013101310E-08,-1.35384854134E+02
1.32013201320E-08,-1.34000085010E+02
1.33013301330E-08,-1.33061853511E+02
1.34013401340E-08,-1.32438963606E+02
1.35013501350E-08,-1.32015213681E+02
1.36013601360E-08,-1.31696894076E+02
1.37013701370E-08,-1.31428154198E+02
1.38013801380E-08,-1.31201588356E+02
1.39013901390E-08,-1.31050851727E+02
1.40014001400E-08,-1.31027651174E+02
1.41014101410E-08,-1.31175749417E+02
1.42014201420E-08,-1.31507323229E+02
1.43014301430E-08,-1.31975371169E+02
1.44014401440E-08,-1.32439356684E+02
1.45014501450E-08,-1.32663073505E+02
1.46014601460E-08,-1.32437667266E+02
1.47014701470E-08,-1.31779720951E+02
1.48014801480E-08,-1.30920397229E+02
1.49014901490E-08,-1.30106516565E+02
1.50015001500E-08,-1.29493778331E+02
1.51015101510E-08,-1.29158147910E+02
1.52015201520E-08,-1.29131118822E+02
1.53015301530E-08,-1.29420138438E+02
1.54015401540E-08,-1.30010017341E+02
1.55015501550E-08,-1.30842260125E+02
1.56015601560E-08,-1.31765321300E+02
1.57015701570E-08,-1.32481593976E+02
1.58015801580E-08,-1.32638108397E+02
1.59015901590E-08,-1.32147688336E+02
1.60016001600E-08,-1.31287220738E+02
1.61016101610E-08,-1.30387974888E+02
1.62016201620E-08,-1.29639861454E+02
1.63016301630E-08,-1.29113253629E+02
1.64016401640E-08,-1.28818779924E+02
1.65016501650E-08,-1.28742255959E+02
1.66016601660E-08,-1.28860075164E+02
1.67016701670E-08,-1.29145794603E+02
1.68016801680E-08,-1.29573671128E+02
1.69016901690E-08,-1.30121431695E+02
1.70017001700E-08,-1.30772596436E+02
1.71017101710E-08,-1.31517527000E+02
1.72017201720E-08,-1.32351983322E+02
1.73017301730E-08,-1.33272359956E+02
1.74017401740E-08,-1.34267590072E+02
1.75017501750E-08,-1.35308583049E+02
1.76017601760E-08,-1.36337374060E+02
1.77017701770E-08,-1.37260814176E+02
1.78017801780E-08,-1.37956835487E+02
1.79017901790E-08,-1.38300478592E+02
1.80018001800E-08,-1.38207601960E+02
1.81018101810E-08,-1.37678428985E+02
1.82018201820E-08,-1.36809518350E+02
1.83018301830E-08,-1.35757127709E+02
1.84018401840E-08,-1.34680341917E+02
1.85018501850E-08,-1.33705542564E+02
1.86018601860E-08,-1.32921011220E+02
1.87018701870E-08,-1.32387143935E+02
1.88018801880E-08,-1.32149496265E+02
1.89018901890E-08,-1.32249806738E+02
1.90019001900E-08,-1.32734014758E+02
1.91019101910E-08,-1.33654519134E+02
1.92019201920E-08,-1.35049291035E+02
1.93019301930E-08,-1.36815504332E+02
1.94019401940E-08,-1.38252159592E+02
1.95019501950E-08,-1.37909254613E+02
1.96019601960E-08,-1.35912031580E+02
1.97019701970E-08,-1.33697813130E+02
1.98019801980E-08,-1.31869267695E+02
1.99019901990E-08,-1.30496292754E+02
2.00020002000E-08,-1.29531792716E+02
2.01020102010E-08,-1.28919463478E+02
2.02020202020E-08,-1.28611385581E+02
2.03020302030E-08,-1.28566883960E+02
2.04020402040E-08,-1.28747963267E+02
2.05020502050E-08,-1.29114200572E+02
2.06020602060E-08,-1.29617653981E+02
2.07020702070E-08,-1.30198531666E+02
2.08020802080E-08,-1.30783534477E+02
2.09020902090E-08,-1.31290101614E+02
2.10021002100E-08,-1.31639345567E+02
2.11021102110E-08,-1.31775890589E+02
2.12021202120E-08,-1.31685628092E+02
2.13021302130E-08,-1.31400421290E+02
2.14021402140E-08,-1.30987003896E+02
2.15021502150E-08,-1.30527976298E+02
2.16021602160E-08,-1.30105327876E+02
2.17021702170E-08,-1.29791760952E+02
2.18021802180E-08,-1.29649454503E+02
2.19021902190E-08,-1.29733692866E+02
2.20022002200E-08,-1.30099337580E+02
2.21022102210E-08,-1.30809679440E+02
2.22022202220E-08,-1.31948753704E+02
2.23022302230E-08,-1.33638129829E+02
2.24022402240E-08,-1.36042583640E+02
2.25022502250E-08,-1.39172386143E+02
2.26022602260E-08,-1.41298082123E+02
2.27022702270E-08,-1.39306840611E+02
2.28022802280E-08,-1.36163967632E+02
2.29022902290E-08,-1.33722409318E+02
2.30023002300E-08,-1.31987633703E+02
2.31023102310E-08,-1.30784332097E+02
2.32023202320E-08,-1.29974418246E+02
2.33023302330E-08,-1.29451724760E+02
2.34023402340E-08,-1.29125037968E+02
2.35023502350E-08,-1.28909458320E+02
2.36023602360E-08,-1.28728171947E+02
2.37023702370E-08,-1.28523398371E+02
2.38023802380E-08,-1.28269216372E+02
2.39023902390E-08,-1.27975110639E+02
2.40024002400E-08,-1.27675733755E+02
2.41024102410E-08,-1.27413988353E+02
2.42024202420E-08,-1.27227463199E+02
2.43024302430E-08,-1.27142132235E+02
2.44024402440E-08,-1.27171523389E+02
2.45024502450E-08,-1.27318286846E+02
2.46024602460E-08,-1.27576197765E+02
2.47024702470E-08,-1.27931864758E+02
2.48024802480E-08,-1.28366089830E+02
2.49024902490E-08,-1.28855018789E+02
2.50025002500E-08,-1.29371145344E+02
2.51025102510E-08,-1.29884115713E+02
2.52025202520E-08,-1.30361405633E+02
2.53025302530E-08,-1.30769494541E+02
2.54025402540E-08,-1.31076801464E+02
2.55025502550E-08,-1.31259265477E+02
2.56025602560E-08,-1.31307163647E+02
2.57025702570E-08,-1.31229042740E+02
2.58025802580E-08,-1.31049119727E+02
2.59025902590E-08,-1.30798959422E+02
2.60026002600E-08,-1.30508167578E+02
2.61026102610E-08,-1.30198508531E+02
2.62026202620E-08,-1.29882860005E+02
2.63026302630E-08,-1.29567956194E+02
2.64026402640E-08,-1.29258889364E+02
2.65026502650E-08,-1.28963290750E+02
2.66026602660E-08,-1.28693637043E+02
2.67026702670E-08,-1.28467142408E+02
2.68026802680E-08,-1.28303798515E+02
2.69026902690E-08,-1.28223703088E+02
2.70027002700E-08,-1.28244655736E+02
2.71027102710E-08,-1.28380439625E+02
2.72027202720E-08,-1.28639713534E+02
2.73027302730E-08,-1.29025229816E+02
2.74027402740E-08,-1.29533153611E+02
2.75027502750E-08,-1.30152506269E+02
2.76027602760E-08,-1.30865119562E+02
2.77027702770E-08,-1.31646818768E+02
2.78027802780E-08,-1.32470462024E+02
2.79027902790E-08,-1.33310373861E+02
2.80028002800E-08,-1.34145581323E+02
2.81028102810E-08,-1.34957631308E+02
2.82028202820E-08,-1.35720350908E+02
2.83028302830E-08,-1.36385449859E+02
2.84028402840E-08,-1.36878542614E+02
2.85028502850E-08,-1.37126072290E+02
2.86028602860E-08,-1.37110455312E+02
2.87028702870E-08,-1.36903042503E+02
2.88028802880E-08,-1.36635183735E+02
2.89028902890E-08,-1.36442986029E+02
2.90029002900E-08,-1.36436988105E+02
2.91029102910E-08,-1.36702721110E+02
2.92029202920E-08,-1.37315946148E+02
2.93029302930E-08,-1.38363697336E+02
2.94029402940E-08,-1.39975510821E+02
2.95029502950E-08,-1.42389525349E+02
2.96029602960E-08,-1.46156758119E+02
2.97029702970E-08,-1.53209576126E+02
2.98029802980E-08,-1.66228435277E+02
2.99029902990E-08,-1.51018884061E+02
3.00030003000E-08,-1.46455714609E+02
3.01030103010E-08,-1.44134176268E+02
3.02030203020E-08,-1.42884739786E+02
3.03030303030E-08,-1.42246102969E+02
3.04030403040E-08,-1.41891319925E+02
3.05030503050E-08,-1.41492604577E+02
3.06030603060E-08,-1.40778057367E+02
3.07030703070E-08,-1.39694147776E+02
3.08030803080E-08,-1.38411367447E+02
3.09030903090E-08,-1.37144117172E+02
3.10031003100E-08,-1.36033116207E+02
3.11031103110E-08,-1.35144038170E+02
3.12031203120E-08,-1.34499753279E+02
3.13031303130E-08,-1.34104660093E+02
3.14031403140E-08,-1.33957725330E+02
3.15031503150E-08,-1.34058822252E+02
3.16031603160E-08,-1.34411720400E+02
3.17031703170E-08,-1.35025039505E+02
3.18031803180E-08,-1.35910435985E+02
3.19031903190E-08,-1.37073593059E+02
3.20032003200E-08,-1.38484215734E+02
3.21032103210E-08,-1.39992797022E+02
3.22032203220E-08,-1.41184799936E+02
3.23032303230E-08,-1.41460393497E+02
3.24032403240E-08,-1.40721997563E+02
3.25032503250E-08,-1.39528687261E+02
3.26032603260E-08,-1.38374690350E+02
3.27032703270E-08,-1.37458733635E+02
3.28032803280E-08,-1.36816498423E+02
3.29032903290E-08,-1.36414902468E+02
3.30033003300E-08,-1.36180677748E+02
3.31033103310E-08,-1.36003702898E+02
3.32033203320E-08,-1.35748025540E+02
3.33033303330E-08,-1.35295847261E+02
3.34033403340E-08,-1.34611002032E+02
3.35033503350E-08,-1.33758332738E+02
3.36033603360E-08,-1.32854352312E+02
3.37033703370E-08,-1.32006686279E+02
3.38033803380E-08,-1.31288419530E+02
3.39033903390E-08,-1.30740519100E+02
3.40034003400E-08,-1.30382295916E+02
3.41034103410E-08,-1.30220064657E+02
3.42034203420E-08,-1.30252088321E+02
3.43034303430E-08,-1.30470389122E+02
3.44034403440E-08,-1.30860191546E+02
3.45034503450E-08,-1.31397576858E+02
3.46034603460E-08,-1.32046211901E+02
3.47034703470E-08,-1.32755291272E+02
3.48034803480E-08,-1.33462990192E+02
3.49034903490E-08,-1.34110273005E+02
3.50035003500E-08,-1.34663728551E+02
3.51035103510E-08,-1.35134163453E+02
3.52035203520E-08,-1.35575825022E+02
3.53035303530E-08,-1.36068276594E+02
3.54035403540E-08,-1.36697918257E+02
3.55035503550E-08,-1.37551915627E+02
3.56035603560E-08,-1.38727110545E+02
3.57035703570E-08,-1.40356177559E+02
3.58035803580E-08,-1.42669844886E+02
3.59035903590E-08,-1.46185804311E+02
3.60036003600E-08,-1.52634828389E+02
3.61036103610E-08,-1.66146819397E+02
3.62036203620E-08,-1.50539552040E+02
3.63036303630E-08,-1.45235179203E+02
3.64036403640E-08,-1.42155781651E+02
3.65036503650E-08,-1.40100666418E+02
3.66036603660E-08,-1.38665696997E+02
3.67036703670E-08,-1.37666414172E+02
3.68036803680E-08,-1.37002816780E+02
3.69036903690E-08,-1.36612785754E+02
3.70037003700E-08,-1.36451587975E+02
3.71037103710E-08,-1.36480887109E+02
3.72037203720E-08,-1.36661975570E+02
3.73037303730E-08,-1.36951870562E+02
3.74037403740E-08,-1.37302841643E+02
3.75037503750E-08,-1.37666532228E+02
3.76037603760E-08,-1.38002200391E+02
3.77037703770E-08,-1.38284789755E+02
3.78037803780E-08,-1.38506263744E+02
3.79037903790E-08,-1.38667490812E+02
3.80038003800E-08,-1.38765871588E+02
3.81038103810E-08,-1.38788381393E+02
3.82038203820E-08,-1.38717157082E+02
3.83038303830E-08,-1.38546284032E+02
3.84038403840E-08,-1.38298096548E+02
3.85038503850E-08,-1.38025505911E+02
3.86038603860E-08,-1.37799259643E+02
3.87038703870E-08,-1.37691497851E+02
3.88038803880E-08,-1.37765472630E+02
3.89038903890E-08,-1.38072281434E+02
3.90039003900E-08,-1.38649533225E+02
3.91039103910E-08,-1.39513938251E+02
3.92039203920E-08,-1.40634200013E+02
3.93039303930E-08,-1.41862939555E+02
3.94039403940E-08,-1.42846403917E+02
3.95039503950E-08,-1.43140697159E+02
3.96039603960E-08,-1.42702525719E+02
3.97039703970E-08,-1.41975611867E+02
3.98039803980E-08,-1.41401220855E+02
3.99039903990E-08,-1.41224751205E+02
4.00040004000E-08,-1.41584550454E+02
4.01040104010E-08,-1.42607414861E+02
4.02040204020E-08,-1.44444175153E+02
4.03040304030E-08,-1.47023514841E+02
4.04040404040E-08,-1.48276042841E+02
4.05040504050E-08,-1.45508704128E+02
4.06040604060E-08,-1.41980998247E+02
4.07040704070E-08,-1.39219148356E+02
4.08040804080E-08,-1.37180815512E+02
4.09040904090E-08,-1.35701518626E+02
4.10041004100E-08,-1.34663458414E+02
4.11041104110E-08,-1.33988593266E+02
4.12041204120E-08,-1.33623301096E+02
4.13041304130E-08,-1.33527841712E+02
4.14041404140E-08,-1.33669258569E+02
4.15041504150E-08,-1.34015992583E+02
4.16041604160E-08,-1.34533264765E+02
4.17041704170E-08,-1.35179149641E+02
4.18041804180E-08,-1.35902359568E+02
4.19041904190E-08,-1.36643916517E+02
4.20042004200E-08,-1.37344824009E+02
4.21042104210E-08,-1.37958604334E+02
4.22042204220E-08,-1.38462114126E+02
4.23042304230E-08,-1.38857046066E+02
4.24042404240E-08,-1.39162083285E+02
4.25042504250E-08,-1.39403711583E+02
4.26042604260E-08,-1.39612635941E+02
4.27042704270E-08,-1.39825637324E+02
4.28042804280E-08,-1.40088300001E+02
4.29042904290E-08,-1.40455292260E+02
4.30043004300E-08,-1.40988566706E+02
4.31043104310E-08,-1.41755884456E+02
4.32043204320E-08,-1.42831187346E+02
4.33043304330E-08,-1.44294607371E+02
4.34043404340E-08,-1.46217479554E+02
4.35043504350E-08,-1.48563830911E+02
4.36043604360E-08,-1.50782265293E+02
4.37043704370E-08,-1.51411138032E+02
4.38043804380E-08,-1.50224374855E+02
4.39043904390E-08,-1.48747904209E+02
4.40044004400E-08,-1.47765159649E+02
4.41044104410E-08,-1.47433104754E+02
4.42044204420E-08,-1.47785198242E+02
4.43044304430E-08,-1.48882374767E+02
4.44044404440E-08,-1.50845321513E+02
4.45044504450E-08,-1.53702001294E+02
4.46044604460E-08,-1.55984280687E+02
4.47044704470E-08,-1.54292283011E+02
4.48044804480E-08,-1.51215176192E+02
4.49044904490E-08,-1.48926616933E+02
4.50045004500E-08,-1.47513512414E+02
4.51045104510E-08,-1.46841417244E+02
4.52045204520E-08,-1.46837158262E+02
4.53045304530E-08,-1.47501154421E+02
4.54045404540E-08,-1.48905893540E+02
4.55045504550E-08,-1.51165073474E+02
4.56045604560E-08,-1.53999661108E+02
4.57045704570E-08,-1.54721057211E+02
4.58045804580E-08,-1.51831604854E+02
4.59045904590E-08,-1.48746947127E+02
4.60046004600E-08,-1.46443585827E+02
4.61046104610E-08,-1.44820799214E+02
4.62046204620E-08,-1.43727902752E+02
4.63046304630E-08,-1.43064431721E+02
4.64046404640E-08,-1.42771711823E+02
4.65046504650E-08,-1.42822355427E+02
4.66046604660E-08,-1.43215745600E+02
4.67046704670E-08,-1.43978348475E+02
4.68046804680E-08,-1.45166325690E+02
4.69046904690E-08,-1.46858554406E+02
4.70047004700E-08,-1.49065347547E+02
4.71047104710E-08,-1.51182088311E+02
4.72047204720E-08,-1.51116288963E+02
4.73047304730E-08,-1.48681217311E+02
4.74047404740E-08,-1.46035089289E+02
4.75047504750E-08,-1.43909953919E+02
4.76047604760E-08,-1.42319666859E+02
4.77047704770E-08,-1.41180938967E+02
4.78047804780E-08,-1.40420835210E+02
4.79047904790E-08,-1.39982144300E+02
4.80048004800E-08,-1.39814038024E+02
4.81048104810E-08,-1.39860776454E+02
4.82048204820E-08,-1.40050685754E+02
4.83048304830E-08,-1.40290248597E+02
4.84048404840E-08,-1.40474594746E+02
4.85048504850E-08,-1.40523402478E+02
4.86048604860E-08,-1.40424512597E+02
4.87048704870E-08,-1.40243028683E+02
4.88048804880E-08,-1.40085633495E+02
4.89048904890E-08,-1.40058256858E+02
4.90049004900E-08,-1.40247053498E+02
4.91049104910E-08,-1.40720034195E+02
4.92049204920E-08,-1.41535936136E+02
4.93049304930E-08,-1.42749830023E+02
4.94049404940E-08,-1.44399655110E+02
4.95049504950E-08,-1.46416145085E+02
4.96049604960E-08,-1.48294983656E+02
4.97049704970E-08,-1.48810275077E+02
4.98049804980E-08,-1.47612251412E+02
4.99049904990E-08,-1.45902388855E+02
5.00050005001E-08,-1.44434474972E+02
5.01050105011E-08,-1.43354682264E+02
5.02050205021E-08,-1.42624451805E+02
5.03050305031E-08,-1.42170798584E+02
5.04050405041E-08,-1.41921351090E+02
5.05050505051E-08,-1.41814255652E+02
5.06050605061E-08,-1.41805032061E+02
5.07050705071E-08,-1.41871884028E+02
5.08050805081E-08,-1.42015284571E+02
5.09050905091E-08,-1.42248909145E+02
5.10051005101E-08,-1.42582664691E+02
5.11051105111E-08,-1.42999834353E+02
5.12051205121E-08,-1.43431082564E+02
5.13051305131E-08,-1.43739907782E+02
5.14051405141E-08,-1.43760969872E+02
5.15051505151E-08,-1.43413017136E+02
5.16051605161E-08,-1.42780540801E+02
5.17051705171E-08,-1.42049806813E+02
5.18051805181E-08,-1.41393751585E+02
5.19051905191E-08,-1.40925675317E+02
5.20052005201E-08,-1.40709673490E+02
5.21052105211E-08,-1.40782850604E+02
5.22052205221E-08,-1.41171852419E+02
5.23052305231E-08,-1.41902891775E+02
5.24052405241E-08,-1.43007572802E+02
